Ag (Silver) - Johnson and Christy

wavelength (nm), Im(eps)
900, 1.25843
896.858, 1.24747
893.738, 1.23663
892.086, 1.23092
890.639, 1.22591
887.562, 1.21531
884.506, 1.20481
881.471, 1.19443
878.456, 1.18416
875.463, 1.17399
872.489, 1.16393
869.536, 1.15398
866.602, 1.14413
863.689, 1.13437
860.795, 1.12472
857.92, 1.11517
855.064, 1.10571
852.227, 1.09634
849.41, 1.08707
846.61, 1.07789
843.829, 1.06881
841.066, 1.05981
838.322, 1.05089
835.595, 1.04207
832.886, 1.03333
830.194, 1.02467
827.52, 1.0161
824.862, 1.00761
822.222, 0.999196
821.192, 0.995921
819.599, 0.990863
816.992, 0.982608
814.402, 0.97443
811.828, 0.966327
809.271, 0.958299
806.729, 0.950344
804.204, 0.942462
801.694, 0.934651
799.2, 0.92691
796.721, 0.919239
794.258, 0.911636
791.81, 0.9041
789.377, 0.896631
786.958, 0.889227
784.555, 0.881888
782.166, 0.874612
779.792, 0.8674
777.432, 0.860249
775.086, 0.853159
772.755, 0.84613
770.437, 0.83916
768.133, 0.832249
765.843, 0.825396
763.567, 0.818599
761.304, 0.811859
759.054, 0.805175
756.818, 0.798545
756.098, 0.796412
754.595, 0.79197
752.385, 0.785448
750.188, 0.778979
748.003, 0.772561
745.832, 0.766195
743.672, 0.75988
741.526, 0.753614
739.391, 0.747399
737.269, 0.741231
735.159, 0.735112
733.062, 0.729041
730.976, 0.723016
728.901, 0.717038
726.839, 0.711105
724.788, 0.705217
722.749, 0.699375
720.721, 0.693576
718.705, 0.687821
716.7, 0.682108
714.706, 0.676438
712.723, 0.670811
710.751, 0.665224
708.79, 0.659679
706.84, 0.654174
704.9, 0.648709
704.545, 0.64771
702.971, 0.643283
701.053, 0.637896
699.145, 0.632548
697.247, 0.627238
695.36, 0.621966
693.482, 0.616731
691.615, 0.611533
689.758, 0.606371
687.911, 0.601245
686.074, 0.596155
684.247, 0.5911
682.429, 0.58608
680.621, 0.581094
678.822, 0.576142
677.033, 0.571223
675.253, 0.566338
673.483, 0.561486
671.722, 0.556666
669.97, 0.551878
668.227, 0.547122
666.494, 0.542398
664.769, 0.537705
663.053, 0.533042
661.346, 0.52841
659.648, 0.523808
659.574, 0.52361
657.958, 0.519237
656.277, 0.514694
654.605, 0.510181
652.941, 0.505697
651.286, 0.501241
649.639, 0.496814
648, 0.492414
646.37, 0.488043
644.747, 0.483699
643.133, 0.479382
641.527, 0.475092
639.929, 0.470829
638.339, 0.466592
636.756, 0.462382
635.182, 0.458197
633.615, 0.454038
632.056, 0.449905
630.505, 0.445797
628.961, 0.441713
627.425, 0.437655
625.896, 0.433621
624.375, 0.429611
622.861, 0.425625
621.355, 0.421663
619.855, 0.417725
618.363, 0.41381
616.915, 0.410016
616.878, 0.409919
615.4, 0.40605
613.93, 0.402204
612.466, 0.398381
611.009, 0.394581
609.559, 0.390802
608.116, 0.387046
606.68, 0.383312
605.251, 0.379599
603.828, 0.375908
602.412, 0.372238
601.003, 0.368589
599.6, 0.364962
598.204, 0.361355
596.814, 0.357769
595.43, 0.354203
594.054, 0.350658
592.683, 0.347134
591.319, 0.343629
589.961, 0.340144
588.609, 0.336679
587.263, 0.333234
585.924, 0.329808
584.59, 0.326402
583.263, 0.323015
582.16, 0.320202
581.942, 0.319647
580.626, 0.316298
579.317, 0.312968
578.014, 0.309657
576.716, 0.306364
575.424, 0.30309
574.138, 0.299834
572.858, 0.296597
571.583, 0.293378
570.314, 0.290177
569.051, 0.286994
567.793, 0.283829
566.541, 0.280681
565.294, 0.277552
564.053, 0.27444
562.817, 0.271345
561.587, 0.268268
560.361, 0.265208
559.142, 0.262166
557.927, 0.25914
556.718, 0.256132
555.514, 0.253141
554.316, 0.250167
553.122, 0.247209
551.934, 0.244268
550.75, 0.241345
549.572, 0.238437
548.673, 0.23622
548.399, 0.235547
547.231, 0.232672
546.067, 0.229815
544.909, 0.226973
543.756, 0.224148
542.607, 0.22134
541.463, 0.218547
540.325, 0.215771
539.19, 0.213011
538.061, 0.210267
536.936, 0.207539
535.816, 0.204827
534.701, 0.202131
533.591, 0.199451
532.484, 0.196787
531.383, 0.194139
530.286, 0.191506
529.194, 0.18889
528.106, 0.186289
527.022, 0.183704
525.943, 0.181135
524.869, 0.178581
523.798, 0.176043
522.733, 0.173521
521.671, 0.171014
521.008, 0.169452
520.614, 0.168523
519.561, 0.166048
518.512, 0.163588
517.468, 0.161144
516.427, 0.158716
515.391, 0.156303
514.359, 0.153906
513.331, 0.151524
512.308, 0.149158
511.288, 0.146808
510.272, 0.144473
509.261, 0.142154
508.253, 0.139851
507.25, 0.137563
506.25, 0.135291
505.254, 0.133034
504.262, 0.130794
503.275, 0.128569
502.291, 0.126359
501.31, 0.124166
500.334, 0.121988
499.361, 0.119827
498.392, 0.117681
497.427, 0.115551
496.466, 0.113437
496, 0.112415
495.508, 0.111339
494.554, 0.109257
493.604, 0.107191
492.658, 0.105141
491.715, 0.103107
490.775, 0.10109
489.839, 0.0990888
488.907, 0.0971039
487.978, 0.0951355
487.053, 0.0931835
486.131, 0.0912479
485.213, 0.089329
484.298, 0.0874266
483.387, 0.085541
482.479, 0.0836721
481.575, 0.08182
480.674, 0.0799849
479.776, 0.0781667
478.881, 0.0763656
477.99, 0.0745817
477.103, 0.072815
476.218, 0.0710656
475.337, 0.0693336
474.459, 0.0676191
473.584, 0.0659222
472.713, 0.064243
471.845, 0.0625816
471.483, 0.0618928
470.98, 0.0609381
470.118, 0.0593125
469.259, 0.0577051
468.403, 0.0561159
467.551, 0.054545
466.701, 0.0529926
465.855, 0.0514587
465.012, 0.0499434
464.171, 0.048447
463.334, 0.0469695
462.5, 0.0455111
461.669, 0.0440718
460.841, 0.0426519
460.015, 0.0412514
459.193, 0.0398705
458.374, 0.0385093
457.557, 0.0371681
456.744, 0.0358468
455.933, 0.0345458
455.125, 0.033265
454.32, 0.0320048
453.518, 0.0307652
452.719, 0.0295464
451.923, 0.0283487
451.129, 0.027172
450.909, 0.0268491
450.338, 0.0260167
449.55, 0.0248829
448.765, 0.0237708
447.982, 0.0226806
447.202, 0.0216124
446.425, 0.0205664
445.651, 0.0195429
444.879, 0.018542
444.11, 0.017564
443.343, 0.016609
442.579, 0.0156772
441.818, 0.0147688
441.06, 0.0138842
440.304, 0.0130234
439.55, 0.0121867
438.799, 0.0113743
438.051, 0.0105865
437.305, 0.00982354
436.562, 0.00908555
435.822, 0.00837283
435.083, 0.00768563
434.348, 0.00702418
433.615, 0.00638874
432.884, 0.00577956
432.156, 0.00519691
431.43, 0.00464105
430.707, 0.00411225
430.556, 0.00400507
429.986, 0.00361079
429.267, 0.00313693
428.551, 0.00269096
427.837, 0.00227316
427.126, 0.00188383
426.417, 0.00152326
425.71, 0.00119175
425.006, 0.000889594
424.304, 0.000617112
423.604, 0.000374611
422.907, 0.00016241
422.212, -1.91706e-05
421.519, -0.000169803
420.828, -0.000289157
420.14, -0.000376894
419.454, -0.000432675
418.77, -0.000456152
418.089, -0.000446974
417.409, -0.000404785
416.732, -0.000329224
416.057, -0.000219923
415.385, -7.6511e-05
414.714, 0.00010139
414.046, 0.000314161
413.379, 0.000562192
413.333, 0.00058065
412.715, 0.000845876
412.053, 0.00116561
411.393, 0.0015218
410.735, 0.00191486
410.08, 0.0023452
409.426, 0.00281324
408.775, 0.00331941
408.125, 0.00386414
407.478, 0.00444788
406.833, 0.00507106
406.189, 0.00573415
405.548, 0.00643758
404.909, 0.00718184
404.272, 0.00796738
403.636, 0.00879468
403.003, 0.00966423
402.372, 0.0105765
401.743, 0.011532
401.115, 0.0125313
400.49, 0.0135747
399.867, 0.0146629
399.245, 0.0157964
398.626, 0.0169757
398.008, 0.0182013
397.436, 0.0193819
397.392, 0.0194738
396.778, 0.0207937
396.167, 0.0221616
395.557, 0.023578
394.948, 0.0250435
394.342, 0.0265587
393.738, 0.0281241
393.135, 0.0297404
392.534, 0.0314081
391.935, 0.0331279
391.338, 0.0349003
390.743, 0.036726
390.15, 0.0386057
389.558, 0.0405398
388.968, 0.0425292
388.38, 0.0445743
387.794, 0.0466759
387.209, 0.0488347
386.627, 0.0510513
386.046, 0.0533264
385.466, 0.0556607
384.889, 0.0580548
384.313, 0.0605095
383.739, 0.0630255
383.166, 0.0656035
382.596, 0.0682442
382.027, 0.0709484
381.538, 0.073327
381.459, 0.0737168
380.894, 0.0765501
380.33, 0.0794491
379.768, 0.0824146
379.207, 0.0854473
378.648, 0.088548
378.091, 0.0917176
377.535, 0.0949567
376.981, 0.0982663
376.429, 0.101647
375.878, 0.1051
375.329, 0.108626
374.781, 0.112225
374.235, 0.115899
373.691, 0.119648
373.148, 0.123474
372.607, 0.127376
372.067, 0.131357
371.529, 0.135417
370.992, 0.139556
370.457, 0.143776
369.924, 0.148077
369.392, 0.152461
368.862, 0.156929
368.333, 0.16148
367.953, 0.164813
367.805, 0.166117
367.279, 0.170841
366.755, 0.175651
366.232, 0.180549
365.711, 0.185537
365.191, 0.190615
364.672, 0.195783
364.156, 0.201044
363.64, 0.206397
363.126, 0.211845
362.613, 0.217387
362.102, 0.223026
361.593, 0.228761
361.084, 0.234595
360.578, 0.240527
360.072, 0.24656
359.568, 0.252693
359.065, 0.258929
358.564, 0.265268
358.065, 0.271711
357.566, 0.27826
357.069, 0.284914
356.573, 0.291676
356.079, 0.298547
355.586, 0.305527
355.095, 0.312618
354.605, 0.31982
354.286, 0.324577
354.116, 0.327135
353.628, 0.334564
353.142, 0.342108
352.657, 0.349767
352.174, 0.357544
351.692, 0.365438
351.211, 0.373452
350.731, 0.381586
350.253, 0.389841
349.776, 0.398219
349.301, 0.40672
348.826, 0.415346
348.353, 0.424097
347.882, 0.432974
347.411, 0.44198
346.942, 0.451114
346.474, 0.460378
346.007, 0.469772
345.542, 0.479299
345.078, 0.488958
344.615, 0.498751
344.153, 0.508679
343.693, 0.518743
343.233, 0.528943
342.775, 0.539282
342.541, 0.544628
342.319, 0.549759
341.863, 0.560376
341.409, 0.571133
340.956, 0.582032
340.504, 0.593074
340.053, 0.604259
339.603, 0.615588
339.155, 0.627062
338.708, 0.638683
338.262, 0.65045
337.817, 0.662364
337.373, 0.674427
336.931, 0.68664
336.49, 0.699001
336.049, 0.711514
335.61, 0.724178
335.172, 0.736993
334.736, 0.749961
334.3, 0.763083
333.866, 0.776358
333.432, 0.789787
333, 0.803371
332.569, 0.81711
332.139, 0.831005
331.71, 0.845056
331.551, 0.850321
331.282, 0.859263
330.856, 0.873628
330.43, 0.888149
330.006, 0.902828
329.582, 0.917664
329.16, 0.932658
328.739, 0.947809
328.318, 0.963119
327.899, 0.978587
327.481, 0.994212
327.064, 1.01
326.649, 1.02594
326.234, 1.04204
325.82, 1.05829
325.407, 1.07471
324.995, 1.09128
324.585, 1.108
324.175, 1.12488
323.767, 1.14192
323.359, 1.15912
322.953, 1.17646
322.547, 1.19396
322.143, 1.21162
321.739, 1.22942
321.337, 1.24738
320.935, 1.26548
320.535, 1.28374
320.413, 1.28931
320.135, 1.30214
319.737, 1.3207
319.339, 1.33939
318.943, 1.35823
318.547, 1.37722
318.153, 1.39634
317.759, 1.41561
317.367, 1.43501
316.975, 1.45455
316.585, 1.47422
316.195, 1.49403
315.806, 1.51397
315.418, 1.53404
315.032, 1.55423
314.646, 1.57455
314.261, 1.595
313.877, 1.61556
313.494, 1.63624
313.112, 1.65703
312.73, 1.67794
312.35, 1.69896
311.971, 1.72008
311.592, 1.74131
311.215, 1.76264
310.838, 1.78407
310.777, 1.78758
310.463, 1.8056
310.088, 1.82721
309.714, 1.84892
309.341, 1.87071
308.969, 1.89258
308.598, 1.91453
308.228, 1.93656
307.858, 1.95866
307.49, 1.98082
307.122, 2.00305
306.755, 2.02534
306.39, 2.04768
306.025, 2.07008
305.66, 2.09252
305.297, 2.11501
304.935, 2.13754
304.573, 2.1601
304.212, 2.18269
303.853, 2.20531
303.494, 2.22795
303.136, 2.25061
302.778, 2.27327
302.422, 2.29595
302.066, 2.31863
301.711, 2.34131
301.357, 2.36398
301.004, 2.38664
300.971, 2.38879
300.652, 2.40928
300.301, 2.43191
299.95, 2.4545
299.6, 2.47707
299.251, 2.4996
298.903, 2.52208
298.556, 2.54452
298.209, 2.56691
297.863, 2.58925
297.518, 2.61152
297.174, 2.63372
296.831, 2.65585
296.488, 2.67791
296.146, 2.69988
295.805, 2.72177
295.465, 2.74356
295.126, 2.76525
294.787, 2.78684
294.449, 2.80833
294.112, 2.8297
293.776, 2.85096
293.44, 2.87209
293.105, 2.89309
292.771, 2.91396
292.453, 2.93376
292.438, 2.93469
292.105, 2.95529
291.773, 2.97573
291.442, 2.99602
291.112, 3.01616
290.783, 3.03613
290.454, 3.05595
290.126, 3.07559
289.799, 3.09505
289.472, 3.11434
289.146, 3.13344
288.821, 3.15236
288.497, 3.17109
288.173, 3.18962
287.85, 3.20795
287.528, 3.22608
287.207, 3.24401
286.886, 3.26172
286.566, 3.27922
286.246, 3.29651
285.928, 3.31357
285.61, 3.33041
285.293, 3.34703
284.976, 3.36341
284.66, 3.37956
284.404, 3.39255
284.345, 3.39548
284.031, 3.41116
283.717, 3.4266
283.404, 3.4418
283.092, 3.45675
282.78, 3.47146
282.469, 3.48591
282.159, 3.50012
281.85, 3.51407
281.541, 3.52777
281.232, 3.54121
280.925, 3.55439
280.618, 3.56732
280.312, 3.57998
280.006, 3.59238
279.701, 3.60452
279.397, 3.6164
279.094, 3.62801
278.791, 3.63936
278.488, 3.65044
278.187, 3.66126
277.886, 3.67181
277.586, 3.6821
277.286, 3.69211
276.987, 3.70187
276.689, 3.71135
276.391, 3.72057
276.169, 3.72728
276.094, 3.72953
275.798, 3.73822
275.502, 3.74664
275.207, 3.7548
274.912, 3.7627
274.618, 3.77033
274.325, 3.77771
274.032, 3.78482
273.74, 3.79168
273.449, 3.79827
273.158, 3.80461
272.868, 3.81069
272.578, 3.81652
272.29, 3.8221
272.001, 3.82743
271.714, 3.8325
271.426, 3.83733
271.14, 3.84191
270.854, 3.84625
270.569, 3.85035
270.284, 3.85421
270, 3.85783
269.717, 3.86121
269.434, 3.86436
269.151, 3.86728
268.98, 3.86894
268.87, 3.86997
268.588, 3.87243
268.308, 3.87467
268.028, 3.87668
267.749, 3.87848
267.47, 3.88006
267.192, 3.88142
266.914, 3.88257
266.637, 3.88352
266.361, 3.88425
266.085, 3.88478
265.809, 3.88511
265.535, 3.88524
265.26, 3.88517
264.987, 3.88491
264.714, 3.88446
264.441, 3.88382
264.169, 3.88299
263.898, 3.88199
263.627, 3.8808
263.357, 3.87943
263.087, 3.87789
262.818, 3.87618
262.549, 3.8743
262.281, 3.87225
262.014, 3.87004
261.747, 3.86767
261.603, 3.86633
261.48, 3.86514
261.214, 3.86246
260.949, 3.85962
260.684, 3.85664
260.42, 3.85351
260.156, 3.85023
259.893, 3.84681
259.63, 3.84326
259.368, 3.83956
259.107, 3.83574
258.846, 3.83178
258.585, 3.8277
258.325, 3.82349
258.065, 3.81915
257.806, 3.8147
257.548, 3.81013
257.29, 3.80545
257.033, 3.80065
256.776, 3.79574
256.519, 3.79073
256.263, 3.78561
256.008, 3.78038
255.753, 3.77506
255.499, 3.76964
255.245, 3.76412
255.144, 3.7619
254.991, 3.75851
254.739, 3.75281
254.486, 3.74703
254.234, 3.74115
253.983, 3.73519
253.732, 3.72915
253.482, 3.72303
253.232, 3.71683
252.983, 3.71056
252.734, 3.70421
252.485, 3.69779
252.237, 3.6913
251.99, 3.68475
251.743, 3.67813
251.497, 3.67144
251.251, 3.6647
251.005, 3.65789
250.76, 3.65103
250.515, 3.64411
250.271, 3.63714
250.028, 3.63012
249.785, 3.62304
249.542, 3.61592
249.3, 3.60875
249.058, 3.60153
248.996, 3.59967
248.817, 3.59427
248.576, 3.58697
248.336, 3.57963
248.096, 3.57225
247.857, 3.56483
247.618, 3.55737
247.379, 3.54988
247.141, 3.54236
246.904, 3.53481
246.667, 3.52722
246.43, 3.51961
246.194, 3.51197
245.958, 3.5043
245.723, 3.49661
245.488, 3.48889
245.254, 3.48116
245.02, 3.4734
244.786, 3.46562
244.553, 3.45782
244.321, 3.45
244.089, 3.44217
243.857, 3.43432
243.626, 3.42646
243.395, 3.41858
243.164, 3.4107
242.934, 3.4028
242.705, 3.39489
242.661, 3.39339
242.476, 3.38697
242.247, 3.37904
242.019, 3.37111
241.791, 3.36317
241.564, 3.35522
241.337, 3.34727
241.11, 3.33931
240.884, 3.33135
240.658, 3.32339
240.433, 3.31543
240.208, 3.30747
239.984, 3.29951
239.76, 3.29154
239.536, 3.28358
239.313, 3.27563
239.091, 3.26767
238.868, 3.25972
238.646, 3.25177
238.425, 3.24383
238.204, 3.23589
237.983, 3.22796
237.763, 3.22004
237.543, 3.21212
237.323, 3.20421
237.104, 3.19631
237.094, 3.19592
236.886, 3.18842
236.668, 3.18053
236.45, 3.17266
236.232, 3.1648
236.015, 3.15695
235.799, 3.14911
235.582, 3.14128
235.366, 3.13346
235.151, 3.12566
234.936, 3.11787
234.721, 3.1101
234.507, 3.10233
234.293, 3.09458
234.08, 3.08685
233.867, 3.07913
233.654, 3.07143
233.442, 3.06374
233.23, 3.05607
233.018, 3.04842
232.807, 3.04078
232.596, 3.03316
232.386, 3.02555
232.176, 3.01797
231.966, 3.0104
231.757, 3.00285
231.548, 2.99532
231.343, 2.98795
231.339, 2.9878
231.131, 2.98031
230.923, 2.97283
230.716, 2.96538
230.509, 2.95794
230.302, 2.95052
230.096, 2.94313
229.89, 2.93575
229.685, 2.92839
229.479, 2.92105
229.275, 2.91374
229.07, 2.90644
228.866, 2.89917
228.662, 2.89192
228.459, 2.88468
228.256, 2.87747
228.053, 2.87029
227.851, 2.86312
227.649, 2.85597
227.448, 2.84885
227.246, 2.84175
227.045, 2.83467
226.845, 2.82761
226.645, 2.82057
226.445, 2.81356
226.277, 2.80768
226.246, 2.80657
226.047, 2.7996
225.848, 2.79266
225.649, 2.78574
225.451, 2.77884
225.254, 2.77196
225.056, 2.7651
224.859, 2.75827
224.663, 2.75146
224.466, 2.74468
224.27, 2.73792
224.075, 2.73118
223.879, 2.72446
223.685, 2.71777
223.49, 2.7111
223.296, 2.70445
223.102, 2.69783
222.908, 2.69122
222.715, 2.68465
222.522, 2.67809
222.329, 2.67156
222.137, 2.66505
221.945, 2.65857
221.754, 2.65211
221.562, 2.64567
221.429, 2.64118
221.371, 2.63926
221.181, 2.63286
220.991, 2.6265
220.801, 2.62015
220.611, 2.61383
220.422, 2.60753
220.233, 2.60125
220.044, 2.595
219.856, 2.58877
219.668, 2.58257
219.48, 2.57638
219.293, 2.57022
219.106, 2.56409
218.919, 2.55797
218.733, 2.55188
218.546, 2.54581
218.361, 2.53977
218.175, 2.53374
217.99, 2.52774
217.805, 2.52177
217.621, 2.51581
217.437, 2.50988
217.253, 2.50397
217.069, 2.49808
216.886, 2.49222
216.703, 2.48637
216.52, 2.48055
216.405, 2.47689
216.338, 2.47476
216.156, 2.46898
215.974, 2.46323
215.793, 2.4575
215.612, 2.45179
215.431, 2.4461
215.25, 2.44044
215.07, 2.43479
214.89, 2.42917
214.71, 2.42357
214.531, 2.418
214.352, 2.41244
214.173, 2.4069
213.995, 2.40139
213.817, 2.3959
213.639, 2.39043
213.462, 2.38498
213.284, 2.37955
213.107, 2.37415
212.931, 2.36876
212.754, 2.3634
212.578, 2.35805
212.403, 2.35273
212.227, 2.34743
212.052, 2.34215
211.966, 2.33956
211.877, 2.33689
211.702, 2.33165
211.528, 2.32643
211.354, 2.32123
211.18, 2.31605
211.007, 2.31089
210.834, 2.30576
210.661, 2.30064
210.488, 2.29554
210.316, 2.29046
210.144, 2.2854
209.972, 2.28037
209.8, 2.27535
209.629, 2.27035
209.458, 2.26537
209.288, 2.26041
209.117, 2.25547
208.947, 2.25055
208.777, 2.24565
208.608, 2.24077
208.439, 2.23591
208.27, 2.23106
208.101, 2.22624
207.932, 2.22143
207.764, 2.21664
207.596, 2.21188
207.429, 2.20713
207.358, 2.20512
207.261, 2.2024
207.094, 2.19768
206.928, 2.19299
206.761, 2.18831
206.595, 2.18366
206.429, 2.17902
206.263, 2.1744
206.097, 2.16979
205.932, 2.16521
205.767, 2.16064
205.603, 2.15609
205.438, 2.15156
205.274, 2.14705
205.11, 2.14255
204.946, 2.13807
204.783, 2.13361
204.62, 2.12917
204.457, 2.12474
204.294, 2.12033
204.132, 2.11594
203.97, 2.11156
203.808, 2.10721
203.647, 2.10286
203.485, 2.09854
203.324, 2.09423
203.279, 2.09301
203.163, 2.08994
203.003, 2.08567
202.843, 2.08141
202.683, 2.07717
202.523, 2.07294
202.363, 2.06873
202.204, 2.06454
202.045, 2.06036
201.886, 2.0562
201.728, 2.05206
201.569, 2.04793
201.411, 2.04382
201.253, 2.03972
201.096, 2.03564
200.939, 2.03157
200.782, 2.02752
200.625, 2.02349
200.468, 2.01947
200.312, 2.01547
200.156, 2.01148
200, 2.0075


Ag (Silver) - Johnson and Christy

wavelength (nm), Im(eps)
1937.5, 6.7584
1610.39, 3.555
1393.26, 2.626
1215.69, 1.58904
1087.72, 0.6236
984.127, 0.55936
892.086, 0.50496
821.192, 0.45816
756.098, 0.31452
704.545, 0.38704
659.574, 0.4483
616.915, 0.49824
582.16, 0.3858
548.673, 0.43032
521.008, 0.3324
496, 0.3093
471.483, 0.2869
450.909, 0.21256
430.556, 0.19696
413.333, 0.2275
397.436, 0.207
381.538, 0.1864
367.953, 0.23198
354.286, 0.2838
342.541, 0.31976
331.551, 0.28186
320.413, 0.63504
310.777, 1.39216
300.971, 2.58352
292.453, 3.22758
284.404, 3.56448
276.169, 3.75342
268.98, 3.78672
261.603, 3.7449
255.144, 3.70538
248.996, 3.63918
242.661, 3.5828
237.094, 3.49952
231.343, 3.47392
