Au (Gold) - Johnson and Christy 1

wavelength (nm), Im(eps)
900, 2.42263
896.858, 2.39726
893.738, 2.37219
892.086, 2.35897
890.639, 2.34742
887.562, 2.32294
884.506, 2.29876
881.471, 2.27487
878.456, 2.25127
875.463, 2.22795
872.489, 2.20491
869.536, 2.18215
866.602, 2.15967
863.689, 2.13745
860.795, 2.11551
857.92, 2.09384
855.064, 2.07243
852.227, 2.05129
849.41, 2.0304
846.61, 2.00978
843.829, 1.98941
841.066, 1.9693
838.322, 1.94944
835.595, 1.92983
832.886, 1.91048
830.194, 1.89137
827.52, 1.8725
824.862, 1.85388
822.222, 1.83551
821.192, 1.82837
819.599, 1.81737
816.992, 1.79948
814.402, 1.78183
811.828, 1.76441
809.271, 1.74723
806.729, 1.73029
804.204, 1.71358
801.694, 1.69711
799.2, 1.68087
796.721, 1.66486
794.258, 1.64908
791.81, 1.63354
789.377, 1.61822
786.958, 1.60314
784.555, 1.58828
782.166, 1.57365
779.792, 1.55926
777.432, 1.54508
775.086, 1.53114
772.755, 1.51743
770.437, 1.50394
768.133, 1.49068
765.843, 1.47764
763.567, 1.46483
761.304, 1.45226
759.054, 1.4399
756.818, 1.42778
756.098, 1.42391
754.595, 1.41588
752.385, 1.40421
750.188, 1.39277
748.003, 1.38156
745.832, 1.37058
743.672, 1.35983
741.526, 1.34931
739.391, 1.33902
737.269, 1.32896
735.159, 1.31913
733.062, 1.30954
730.976, 1.30018
728.901, 1.29105
726.839, 1.28217
724.788, 1.27351
722.749, 1.2651
720.721, 1.25692
718.705, 1.24899
716.7, 1.24129
714.706, 1.23384
712.723, 1.22663
710.751, 1.21966
708.79, 1.21294
706.84, 1.20647
704.9, 1.20025
704.545, 1.19914
702.971, 1.19428
701.053, 1.18856
699.145, 1.18309
697.247, 1.17788
695.36, 1.17293
693.482, 1.16823
691.615, 1.1638
689.758, 1.15962
687.911, 1.15571
686.074, 1.15207
684.247, 1.14869
682.429, 1.14559
680.621, 1.14276
678.822, 1.1402
677.033, 1.13791
675.253, 1.13591
673.483, 1.13418
671.722, 1.13274
669.97, 1.13158
668.227, 1.13071
666.494, 1.13013
664.769, 1.12984
663.053, 1.12984
661.346, 1.13014
659.648, 1.13074
659.574, 1.13077
657.958, 1.13164
656.277, 1.13284
654.605, 1.13435
652.941, 1.13617
651.286, 1.1383
649.639, 1.14075
648, 1.14351
646.37, 1.14658
644.747, 1.14998
643.133, 1.15371
641.527, 1.15776
639.929, 1.16214
638.339, 1.16685
636.756, 1.1719
635.182, 1.17729
633.615, 1.18301
632.056, 1.18908
630.505, 1.19549
628.961, 1.20225
627.425, 1.20936
625.896, 1.21682
624.375, 1.22464
622.861, 1.23282
621.355, 1.24136
619.855, 1.25026
618.363, 1.25953
616.915, 1.26892
616.878, 1.26916
615.4, 1.27917
613.93, 1.28955
612.466, 1.3003
611.009, 1.31144
609.559, 1.32295
608.116, 1.33484
606.68, 1.34712
605.251, 1.35978
603.828, 1.37284
602.412, 1.38628
601.003, 1.40011
599.6, 1.41434
598.204, 1.42897
596.814, 1.44399
595.43, 1.45941
594.054, 1.47523
592.683, 1.49145
591.319, 1.50808
589.961, 1.52511
588.609, 1.54254
587.263, 1.56038
585.924, 1.57863
584.59, 1.59728
583.263, 1.61634
582.16, 1.63256
581.942, 1.63581
580.626, 1.65568
579.317, 1.67597
578.014, 1.69666
576.716, 1.71776
575.424, 1.73927
574.138, 1.76118
572.858, 1.78351
571.583, 1.80623
570.314, 1.82936
569.051, 1.85289
567.793, 1.87683
566.541, 1.90116
565.294, 1.92589
564.053, 1.95102
562.817, 1.97654
561.587, 2.00245
560.361, 2.02875
559.142, 2.05544
557.927, 2.0825
556.718, 2.10994
555.514, 2.13776
554.316, 2.16595
553.122, 2.19451
551.934, 2.22343
550.75, 2.2527
549.572, 2.28233
548.673, 2.30528
548.399, 2.31231
547.231, 2.34263
546.067, 2.37329
544.909, 2.40427
543.756, 2.43558
542.607, 2.46722
541.463, 2.49916
540.325, 2.5314
539.19, 2.56395
538.061, 2.59679
536.936, 2.6299
535.816, 2.6633
534.701, 2.69696
533.591, 2.73088
532.484, 2.76505
531.383, 2.79946
530.286, 2.8341
529.194, 2.86897
528.106, 2.90405
527.022, 2.93933
525.943, 2.97481
524.869, 3.01047
523.798, 3.0463
522.733, 3.0823
521.671, 3.11845
521.008, 3.14116
520.614, 3.15474
519.561, 3.19116
518.512, 3.2277
517.468, 3.26434
516.427, 3.30109
515.391, 3.33791
514.359, 3.37481
513.331, 3.41177
512.308, 3.44878
511.288, 3.48583
510.272, 3.5229
509.261, 3.55999
508.253, 3.59707
507.25, 3.63414
506.25, 3.67119
505.254, 3.7082
504.262, 3.74516
503.275, 3.78206
502.291, 3.81888
501.31, 3.85562
500.334, 3.89226
499.361, 3.92879
498.392, 3.96519
497.427, 4.00146
496.466, 4.03758
496, 4.05508
495.508, 4.07354
494.554, 4.10932
493.604, 4.14493
492.658, 4.18034
491.715, 4.21554
490.775, 4.25053
489.839, 4.28528
488.907, 4.3198
487.978, 4.35406
487.053, 4.38806
486.131, 4.42179
485.213, 4.45524
484.298, 4.4884
483.387, 4.52125
482.479, 4.55379
481.575, 4.58601
480.674, 4.61791
479.776, 4.64946
478.881, 4.68067
477.99, 4.71152
477.103, 4.74201
476.218, 4.77213
475.337, 4.80187
474.459, 4.83123
473.584, 4.86019
472.713, 4.88876
471.845, 4.91693
471.483, 4.92857
470.98, 4.94468
470.118, 4.97202
469.259, 4.99895
468.403, 5.02544
467.551, 5.05151
466.701, 5.07715
465.855, 5.10234
465.012, 5.1271
464.171, 5.15142
463.334, 5.17529
462.5, 5.19871
461.669, 5.22168
460.841, 5.24419
460.015, 5.26625
459.193, 5.28786
458.374, 5.30901
457.557, 5.3297
456.744, 5.34994
455.933, 5.36971
455.125, 5.38903
454.32, 5.4079
453.518, 5.4263
452.719, 5.44425
451.923, 5.46175
451.129, 5.4788
450.909, 5.48345
450.338, 5.49539
449.55, 5.51154
448.765, 5.52724
447.982, 5.5425
447.202, 5.55731
446.425, 5.57169
445.651, 5.58563
444.879, 5.59915
444.11, 5.61223
443.343, 5.62489
442.579, 5.63713
441.818, 5.64896
441.06, 5.66037
440.304, 5.67138
439.55, 5.68198
438.799, 5.69219
438.051, 5.702
437.305, 5.71143
436.562, 5.72048
435.822, 5.72914
435.083, 5.73744
434.348, 5.74537
433.615, 5.75294
432.884, 5.76015
432.156, 5.76702
431.43, 5.77354
430.707, 5.77973
430.556, 5.78098
429.986, 5.78559
429.267, 5.79112
428.551, 5.79633
427.837, 5.80123
427.126, 5.80583
426.417, 5.81012
425.71, 5.81412
425.006, 5.81784
424.304, 5.82127
423.604, 5.82443
422.907, 5.82733
422.212, 5.82996
421.519, 5.83234
420.828, 5.83447
420.14, 5.83636
419.454, 5.83802
418.77, 5.83945
418.089, 5.84065
417.409, 5.84164
416.732, 5.84242
416.057, 5.843
415.385, 5.84339
414.714, 5.84358
414.046, 5.8436
413.379, 5.84343
413.333, 5.84342
412.715, 5.8431
412.053, 5.8426
411.393, 5.84195
410.735, 5.84115
410.08, 5.8402
409.426, 5.83911
408.775, 5.83789
408.125, 5.83654
407.478, 5.83507
406.833, 5.83349
406.189, 5.8318
405.548, 5.83001
404.909, 5.82812
404.272, 5.82614
403.636, 5.82408
403.003, 5.82193
402.372, 5.81972
401.743, 5.81743
401.115, 5.81508
400.49, 5.81268
399.867, 5.81022
399.245, 5.80772
398.626, 5.80518
398.008, 5.8026
397.436, 5.80017
397.392, 5.79999
396.778, 5.79735
396.167, 5.79469
395.557, 5.79202
394.948, 5.78934
394.342, 5.78665
393.738, 5.78396
393.135, 5.78127
392.534, 5.77859
391.935, 5.77592
391.338, 5.77327
390.743, 5.77064
390.15, 5.76804
389.558, 5.76547
388.968, 5.76293
388.38, 5.76043
387.794, 5.75797
387.209, 5.75555
386.627, 5.75319
386.046, 5.75088
385.466, 5.74862
384.889, 5.74643
384.313, 5.7443
383.739, 5.74224
383.166, 5.74025
382.596, 5.73833
382.027, 5.73649
381.538, 5.73497
381.459, 5.73473
380.894, 5.73305
380.33, 5.73145
379.768, 5.72995
379.207, 5.72853
378.648, 5.72721
378.091, 5.72599
377.535, 5.72486
376.981, 5.72383
376.429, 5.7229
375.878, 5.72208
375.329, 5.72136
374.781, 5.72075
374.235, 5.72025
373.691, 5.71986
373.148, 5.71957
372.607, 5.71941
372.067, 5.71935
371.529, 5.71941
370.992, 5.71958
370.457, 5.71987
369.924, 5.72027
369.392, 5.72078
368.862, 5.72142
368.333, 5.72216
367.953, 5.72277
367.805, 5.72303
367.279, 5.724
366.755, 5.72509
366.232, 5.72629
365.711, 5.7276
365.191, 5.72903
364.672, 5.73055
364.156, 5.73219
363.64, 5.73393
363.126, 5.73577
362.613, 5.73771
362.102, 5.73975
361.593, 5.74188
361.084, 5.7441
360.578, 5.7464
360.072, 5.74879
359.568, 5.75126
359.065, 5.7538
358.564, 5.7564
358.065, 5.75908
357.566, 5.76181
357.069, 5.76459
356.573, 5.76742
356.079, 5.77029
355.586, 5.7732
355.095, 5.77613
354.605, 5.77908
354.286, 5.781
354.116, 5.78203
353.628, 5.785
353.142, 5.78795
352.657, 5.79089
352.174, 5.79381
351.692, 5.79669
351.211, 5.79952
350.731, 5.8023
350.253, 5.80501
349.776, 5.80764
349.301, 5.81018
348.826, 5.81261
348.353, 5.81493
347.882, 5.81711
347.411, 5.81916
346.942, 5.82104
346.474, 5.82274
346.007, 5.82426
345.542, 5.82557
345.078, 5.82666
344.615, 5.82751
344.153, 5.8281
343.693, 5.82843
343.233, 5.82846
342.775, 5.82819
342.541, 5.82792
342.319, 5.82759
341.863, 5.82666
341.409, 5.82536
340.956, 5.82369
340.504, 5.82163
340.053, 5.81917
339.603, 5.81628
339.155, 5.81295
338.708, 5.80918
338.262, 5.80495
337.817, 5.80024
337.373, 5.79506
336.931, 5.7894
336.49, 5.78325
336.049, 5.77661
335.61, 5.76949
335.172, 5.76189
334.736, 5.75383
334.3, 5.74531
333.866, 5.73636
333.432, 5.72701
333, 5.71727
332.569, 5.70718
332.139, 5.69679
331.71, 5.68614
331.551, 5.68212
331.282, 5.67527
330.856, 5.66425
330.43, 5.65313
330.006, 5.64197
329.582, 5.63084
329.16, 5.61982
328.739, 5.60898
328.318, 5.59838
327.899, 5.58811
327.481, 5.57823
327.064, 5.56882
326.649, 5.55994
326.234, 5.55166
325.82, 5.54404
325.407, 5.53712
324.995, 5.53095
324.585, 5.52556
324.175, 5.52099
323.767, 5.51724
323.359, 5.51433
322.953, 5.51226
322.547, 5.51102
322.143, 5.5106
321.739, 5.51095
321.337, 5.51207
320.935, 5.51389
320.535, 5.5164
320.413, 5.51728
320.135, 5.51952
319.737, 5.52322
319.339, 5.52744
318.943, 5.53212
318.547, 5.5372
318.153, 5.54264
317.759, 5.54837
317.367, 5.55433
316.975, 5.56048
316.585, 5.56676
316.195, 5.57313
315.806, 5.57953
315.418, 5.58593
315.032, 5.59228
314.646, 5.59855
314.261, 5.60469
313.877, 5.61069
313.494, 5.61652
313.112, 5.62213
312.73, 5.62752
312.35, 5.63267
311.971, 5.63755
311.592, 5.64215
311.215, 5.64646
310.838, 5.65047
310.777, 5.65109
310.463, 5.65416
310.088, 5.65753
309.714, 5.66058
309.341, 5.6633
308.969, 5.66568
308.598, 5.66772
308.228, 5.66943
307.858, 5.6708
307.49, 5.67184
307.122, 5.67254
306.755, 5.67291
306.39, 5.67296
306.025, 5.67267
305.66, 5.67207
305.297, 5.67115
304.935, 5.66991
304.573, 5.66837
304.212, 5.66653
303.853, 5.66439
303.494, 5.66196
303.136, 5.65925
302.778, 5.65626
302.422, 5.65299
302.066, 5.64946
301.711, 5.64567
301.357, 5.64163
301.004, 5.63733
300.971, 5.63691
300.652, 5.6328
300.301, 5.62803
299.95, 5.62303
299.6, 5.6178
299.251, 5.61236
298.903, 5.60671
298.556, 5.60086
298.209, 5.5948
297.863, 5.58855
297.518, 5.58211
297.174, 5.5755
296.831, 5.5687
296.488, 5.56173
296.146, 5.5546
295.805, 5.54731
295.465, 5.53986
295.126, 5.53226
294.787, 5.52451
294.449, 5.51663
294.112, 5.50861
293.776, 5.50046
293.44, 5.49218
293.105, 5.48378
292.771, 5.47526
292.453, 5.46703
292.438, 5.46663
292.105, 5.4579
291.773, 5.44905
291.442, 5.44011
291.112, 5.43107
290.783, 5.42193
290.454, 5.41271
290.126, 5.4034
289.799, 5.39401
289.472, 5.38454
289.146, 5.37499
288.821, 5.36537
288.497, 5.35569
288.173, 5.34594
287.85, 5.33612
287.528, 5.32625
287.207, 5.31632
286.886, 5.30634
286.566, 5.29631
286.246, 5.28622
285.928, 5.2761
285.61, 5.26593
285.293, 5.25572
284.976, 5.24547
284.66, 5.23518
284.404, 5.22678
284.345, 5.22487
284.031, 5.21452
283.717, 5.20414
283.404, 5.19373
283.092, 5.18331
282.78, 5.17285
282.469, 5.16238
282.159, 5.15189
281.85, 5.14138
281.541, 5.13086
281.232, 5.12032
280.925, 5.10977
280.618, 5.09921
280.312, 5.08864
280.006, 5.07806
279.701, 5.06748
279.397, 5.0569
279.094, 5.04631
278.791, 5.03572
278.488, 5.02513
278.187, 5.01454
277.886, 5.00395
277.586, 4.99337
277.286, 4.98279
276.987, 4.97222
276.689, 4.96166
276.391, 4.9511
276.169, 4.94323
276.094, 4.94055
275.798, 4.93001
275.502, 4.91948
275.207, 4.90897
274.912, 4.89847
274.618, 4.88798
274.325, 4.8775
274.032, 4.86705
273.74, 4.8566
273.449, 4.84618
273.158, 4.83577
272.868, 4.82538
272.578, 4.81501
272.29, 4.80466
272.001, 4.79433
271.714, 4.78402
271.426, 4.77373
271.14, 4.76346
270.854, 4.75321
270.569, 4.74299
270.284, 4.7328
270, 4.72262
269.717, 4.71247
269.434, 4.70235
269.151, 4.69225
268.98, 4.68614
268.87, 4.68218
268.588, 4.67213
268.308, 4.66211
268.028, 4.65211
267.749, 4.64215
267.47, 4.63221
267.192, 4.6223
266.914, 4.61241
266.637, 4.60256
266.361, 4.59273
266.085, 4.58294
265.809, 4.57317
265.535, 4.56343
265.26, 4.55372
264.987, 4.54404
264.714, 4.53439
264.441, 4.52477
264.169, 4.51519
263.898, 4.50563
263.627, 4.4961
263.357, 4.4866
263.087, 4.47714
262.818, 4.46771
262.549, 4.4583
262.281, 4.44893
262.014, 4.43959
261.747, 4.43028
261.603, 4.42529
261.48, 4.42101
261.214, 4.41176
260.949, 4.40255
260.684, 4.39337
260.42, 4.38422
260.156, 4.3751
259.893, 4.36601
259.63, 4.35696
259.368, 4.34794
259.107, 4.33895
258.846, 4.32999
258.585, 4.32106
258.325, 4.31217
258.065, 4.30331
257.806, 4.29448
257.548, 4.28568
257.29, 4.27692
257.033, 4.26818
256.776, 4.25948
256.519, 4.25081
256.263, 4.24218
256.008, 4.23357
255.753, 4.225
255.499, 4.21646
255.245, 4.20795
255.144, 4.20457
254.991, 4.19947
254.739, 4.19102
254.486, 4.18261
254.234, 4.17423
253.983, 4.16587
253.732, 4.15755
253.482, 4.14927
253.232, 4.14101
252.983, 4.13278
252.734, 4.12459
252.485, 4.11642
252.237, 4.10829
251.99, 4.10019
251.743, 4.09212
251.497, 4.08408
251.251, 4.07607
251.005, 4.06809
250.76, 4.06014
250.515, 4.05222
250.271, 4.04434
250.028, 4.03648
249.785, 4.02865
249.542, 4.02085
249.3, 4.01309
249.058, 4.00535
248.996, 4.00336
248.817, 3.99764
248.576, 3.98996
248.336, 3.98231
248.096, 3.9747
247.857, 3.96711
247.618, 3.95954
247.379, 3.95201
247.141, 3.94451
246.904, 3.93704
246.667, 3.92959
246.43, 3.92217
246.194, 3.91479
245.958, 3.90743
245.723, 3.9001
245.488, 3.89279
245.254, 3.88552
245.02, 3.87827
244.786, 3.87105
244.553, 3.86386
244.321, 3.85669
244.089, 3.84956
243.857, 3.84245
243.626, 3.83537
243.395, 3.82831
243.164, 3.82128
242.934, 3.81428
242.705, 3.80731
242.661, 3.80599
242.476, 3.80036
242.247, 3.79344
242.019, 3.78655
241.791, 3.77968
241.564, 3.77284
241.337, 3.76602
241.11, 3.75923
240.884, 3.75247
240.658, 3.74573
240.433, 3.73901
240.208, 3.73233
239.984, 3.72566
239.76, 3.71903
239.536, 3.71242
239.313, 3.70583
239.091, 3.69927
238.868, 3.69273
238.646, 3.68622
238.425, 3.67973
238.204, 3.67327
237.983, 3.66683
237.763, 3.66041
237.543, 3.65402
237.323, 3.64765
237.104, 3.64131
237.094, 3.641
236.886, 3.63499
236.668, 3.62869
236.45, 3.62242
236.232, 3.61617
236.015, 3.60995
235.799, 3.60374
235.582, 3.59756
235.366, 3.59141
235.151, 3.58527
234.936, 3.57916
234.721, 3.57307
234.507, 3.56701
234.293, 3.56096
234.08, 3.55494
233.867, 3.54894
233.654, 3.54296
233.442, 3.53701
233.23, 3.53107
233.018, 3.52516
232.807, 3.51927
232.596, 3.5134
232.386, 3.50756
232.176, 3.50173
231.966, 3.49592
231.757, 3.49014
231.548, 3.48438
231.343, 3.47874
231.339, 3.47863
231.131, 3.47291
230.923, 3.46721
230.716, 3.46153
230.509, 3.45587
230.302, 3.45023
230.096, 3.44461
229.89, 3.43901
229.685, 3.43343
229.479, 3.42787
229.275, 3.42233
229.07, 3.41681
228.866, 3.41131
228.662, 3.40583
228.459, 3.40037
228.256, 3.39493
228.053, 3.38951
227.851, 3.3841
227.649, 3.37872
227.448, 3.37335
227.246, 3.36801
227.045, 3.36268
226.845, 3.35737
226.645, 3.35208
226.445, 3.34681
226.277, 3.34239
226.246, 3.34155
226.047, 3.33632
225.848, 3.3311
225.649, 3.3259
225.451, 3.32072
225.254, 3.31556
225.056, 3.31041
224.859, 3.30528
224.663, 3.30017
224.466, 3.29508
224.27, 3.29001
224.075, 3.28495
223.879, 3.27991
223.685, 3.27489
223.49, 3.26988
223.296, 3.26489
223.102, 3.25992
222.908, 3.25496
222.715, 3.25002
222.522, 3.2451
222.329, 3.2402
222.137, 3.23531
221.945, 3.23044
221.754, 3.22558
221.562, 3.22074
221.429, 3.21736
221.371, 3.21592
221.181, 3.21111
220.991, 3.20632
220.801, 3.20155
220.611, 3.19679
220.422, 3.19205
220.233, 3.18732
220.044, 3.18261
219.856, 3.17791
219.668, 3.17323
219.48, 3.16856
219.293, 3.16391
219.106, 3.15928
218.919, 3.15466
218.733, 3.15006
218.546, 3.14547
218.361, 3.14089
218.175, 3.13633
217.99, 3.13179
217.805, 3.12726
217.621, 3.12275
217.437, 3.11825
217.253, 3.11376
217.069, 3.10929
216.886, 3.10483
216.703, 3.10039
216.52, 3.09596
216.405, 3.09317
216.338, 3.09155
216.156, 3.08715
215.974, 3.08276
215.793, 3.07839
215.612, 3.07403
215.431, 3.06969
215.25, 3.06536
215.07, 3.06104
214.89, 3.05674
214.71, 3.05245
214.531, 3.04817
214.352, 3.04391
214.173, 3.03966
213.995, 3.03543
213.817, 3.0312
213.639, 3.02699
213.462, 3.0228
213.284, 3.01862
213.107, 3.01445
212.931, 3.01029
212.754, 3.00615
212.578, 3.00201
212.403, 2.9979
212.227, 2.99379
212.052, 2.9897
211.966, 2.98769
211.877, 2.98562
211.702, 2.98155
211.528, 2.97749
211.354, 2.97345
211.18, 2.96942
211.007, 2.9654
210.834, 2.9614
210.661, 2.9574
210.488, 2.95342
210.316, 2.94945
210.144, 2.94549
209.972, 2.94155
209.8, 2.93762
209.629, 2.93369
209.458, 2.92978
209.288, 2.92589
209.117, 2.922
208.947, 2.91812
208.777, 2.91426
208.608, 2.91041
208.439, 2.90657
208.27, 2.90274
208.101, 2.89892
207.932, 2.89512
207.764, 2.89132
207.596, 2.88754
207.429, 2.88376
207.358, 2.88217
207.261, 2.88
207.094, 2.87625
206.928, 2.87251
206.761, 2.86879
206.595, 2.86507
206.429, 2.86136
206.263, 2.85767
206.097, 2.85398
205.932, 2.85031
205.767, 2.84664
205.603, 2.84299
205.438, 2.83935
205.274, 2.83571
205.11, 2.83209
204.946, 2.82848
204.783, 2.82488
204.62, 2.82129
204.457, 2.81771
204.294, 2.81414
204.132, 2.81058
203.97, 2.80703
203.808, 2.80349
203.647, 2.79996
203.485, 2.79644
203.324, 2.79294
203.279, 2.79194
203.163, 2.78944
203.003, 2.78595
202.843, 2.78247
202.683, 2.779
202.523, 2.77554
202.363, 2.77209
202.204, 2.76865
202.045, 2.76522
201.886, 2.76179
201.728, 2.75838
201.569, 2.75498
201.411, 2.75159
201.253, 2.7482
201.096, 2.74483
200.939, 2.74146
200.782, 2.73811
200.625, 2.73476
200.468, 2.73143
200.312, 2.7281
200.156, 2.72478
200, 2.72147


Au (Gold) - Johnson and Christy 1

wavelength (nm), Im(eps)
1937.5, 25.3552
1610.39, 12.5552
1393.26, 8.18634
1215.69, 5.7015
1087.72, 3.861
984.127, 2.794
892.086, 1.92542
821.192, 1.62656
756.098, 1.27148
704.545, 1.06678
659.574, 1.03516
616.915, 1.37424
582.16, 1.66054
548.673, 2.1113
521.008, 2.58044
496, 3.81264
471.483, 4.84438
450.909, 5.28264
430.556, 5.6492
413.333, 5.71736
397.436, 5.73888
381.538, 5.64436
367.953, 5.6092
354.286, 5.598
342.541, 5.53816
331.551, 5.57368
320.413, 5.84584
310.777, 5.79258
300.971, 5.78034
292.453, 5.59644
284.404, 5.49486
276.169, 5.28242
268.98, 4.97628
261.603, 4.7223
255.144, 4.49008
248.996, 4.33846
242.661, 4.16328
237.094, 4.05504
231.343, 3.8922
226.277, 3.8252
221.429, 3.7102
216.405, 3.6062
211.966, 3.51
207.358, 3.3904
203.279, 3.39682
199.357, 3.32766
195.276, 3.28568
191.654, 3.17592
187.879, 3.04128


